,x,y,goal x,goal y,waypoint,current distance,obstacle distance,obstacle angle,heading,yaw,goal angle
0,967568.880565859,1935246.3279639785,967568.8241,1935246.327,0,0.06,3.5,0,-0.003,-3.1219022913722427,-3.124522430067656
1,967568.880565859,1935246.3279639785,967572.4631,1935248.799,1,4.35,3.5,0,-2.557,-3.1219022913722427,0.6038103962683631
2,967568.880565859,1935246.3279639785,967572.4631,1935248.799,1,4.35,3.5,0,-2.557,-3.1219022913722427,0.6038103962683631
3,967568.8808372372,1935246.328166629,967572.4631,1935248.799,1,4.35,3.5,0,-2.557,-3.1219022913722427,0.6038074702155131
4,967568.8816721612,1935246.3293851465,967572.4631,1935248.799,1,4.35,3.5,0,-2.56,-3.119750739137833,0.6036858698559785
5,967568.8859973155,1935246.331772935,967572.4631,1935248.799,1,4.35,3.5,0,-2.567,-3.1127891523127307,0.6037985309995719
6,967568.8910577247,1935246.3339741088,967572.4631,1935248.799,1,4.34,3.5,0,-2.572,-3.1067373752171505,0.6040430440091002
7,967568.9010494859,1935246.3388168265,967572.4631,1935248.799,1,4.33,3.5,0,-2.585,-3.0938858989216973,0.6044332651803325
8,967568.9157030215,1935246.3440694262,967572.4631,1935248.799,1,4.31,3.5,0,-2.598,-3.0794548973134823,0.6053617688964956
9,967568.9268689998,1935246.3479849815,967572.4631,1935248.799,1,4.3,3.5,0,-2.608,-3.0687592014273988,0.6060902488052927
10,967568.9445217885,1935246.354582108,967572.4631,1935248.799,1,4.28,3.5,0,-2.617,-3.059389113172659,0.6071718634267377
11,967568.9624043838,1935246.3601607499,967572.4631,1935248.799,1,4.27,3.5,0,-2.636,-3.0388011932447143,0.6084894200010087
12,967568.9790207634,1935246.3666955966,967572.4631,1935248.799,1,4.25,3.5,0,-2.65,-3.0239603498703933,0.6094629130565329
13,967568.9897821698,1935246.3711081508,967572.4631,1935248.799,1,4.24,3.5,0,-2.655,-3.018616203320297,0.6100627639133682
14,967569.0061020144,1935246.377104323,967572.4631,1935248.799,1,4.22,3.5,0,-2.673,-2.9992234708431376,0.6111135733264892
15,967569.0216507526,1935246.383622164,967572.4631,1935248.799,1,4.2,3.5,0,-2.686,-2.985196824899885,0.6119658503501934
16,967569.0370357941,1935246.3908391695,967572.4631,1935248.799,1,4.19,3.5,0,-2.695,-2.9750681053270527,0.6126657740549212
17,967569.0529827862,1935246.3972565709,967572.4631,1935248.799,1,4.17,3.5,0,-2.709,-2.9604697279916636,0.6136056278762143
18,967569.0689488639,1935246.4043912974,967572.4631,1935248.799,1,4.15,3.5,0,-2.716,-2.952701325967384,0.6144146095853319
19,967569.0797359163,1935246.4091093794,967572.4631,1935248.799,1,4.14,3.5,0,-2.724,-2.944348100408602,0.6149851430491253
20,967569.0963408785,1935246.4163610707,967572.4631,1935248.799,1,4.12,3.5,0,-2.745,-2.922593106607697,0.6158718117002666
21,967569.1126976779,1935246.4238681681,967572.4631,1935248.799,1,4.11,3.5,0,-2.756,-2.9103465035485163,0.6166804598638435
22,967569.1294219857,1935246.4312895765,967572.4631,1935248.799,1,4.09,3.5,0,-2.763,-2.9023888112036578,0.6175652283247351
23,967569.1458414946,1935246.438690879,967572.4631,1935248.799,1,4.07,3.5,0,-2.774,-2.890798822357126,0.6184184095982875
24,967569.162444513,1935246.4460645898,967572.4631,1935248.799,1,4.05,3.5,0,-2.783,-2.881044150673369,0.619310849818803
25,967569.1789497044,1935246.453833397,967572.4631,1935248.799,1,4.04,3.5,0,-2.796,-2.8674614365413174,0.6201174026839911
26,967569.1900044876,1935246.4589829042,967572.4631,1935248.799,1,4.02,3.5,0,-2.802,-2.860756387783896,0.6206725245950213
27,967569.2066975606,1935246.4664495904,967572.4631,1935248.799,1,4.01,3.5,0,-2.807,-2.854326744760229,0.621579836467241
28,967569.2233886922,1935246.4740382866,967572.4631,1935248.799,1,3.99,3.5,0,-2.812,-2.8483898806053864,0.6224701606109536
29,967569.2290255208,1935246.4764469713,967572.4631,1935248.799,1,3.98,3.5,0,-2.817,-2.84304262660054,0.6228040941252778
30,967569.2513466805,1935246.4868714104,967572.4631,1935248.799,1,3.96,3.5,0,-2.83,-2.8288435845348663,0.6239546019658446
31,967569.2679375496,1935246.4950077198,967572.4631,1935248.799,1,3.94,3.5,0,-2.835,-2.823294650500802,0.6247390169146769
32,967569.2791111959,1935246.500357454,967572.4631,1935248.799,1,3.93,3.5,0,-2.84,-2.817799321599365,0.6252982315838859
33,967569.2959809778,1935246.5082236058,967572.4631,1935248.799,1,3.91,3.5,0,-2.85,-2.807332519023366,0.6261928296990499
34,967569.3072178162,1935246.513437037,967572.4631,1935248.799,1,3.9,3.5,0,-2.854,-2.8028266579811807,0.6267988087405767
35,967569.3243430463,1935246.520590229,967572.4631,1935248.799,1,3.88,3.5,0,-2.858,-2.797599808178846,0.6278949615711092
36,967569.3422280737,1935246.5260163492,967572.4631,1935248.799,1,3.86,3.5,0,-2.854,-2.799791316821046,0.6294788684372719
37,967569.3597583628,1935246.532642032,967572.4631,1935248.799,1,3.84,3.5,0,-2.853,-2.799744142433728,0.6307708246304342
38,967569.3774477293,1935246.5388583452,967572.4631,1935248.799,1,3.82,3.5,0,-2.852,-2.7986213971449367,0.6321859086568041
39,967569.3893758202,1935246.5428165467,967572.4631,1935248.799,1,3.81,3.5,0,-2.85,-2.7995788896073943,0.633197003086842
40,967569.4130990573,1935246.5514173594,967572.4631,1935248.799,1,3.79,3.5,0,-2.849,-2.799152128724575,0.6350721072149883
41,967569.4250244772,1935246.5555433328,967572.4631,1935248.799,1,3.78,3.5,0,-2.848,-2.7992365284060194,0.6360658627905211
42,967569.4489648868,1935246.5639187652,967572.4631,1935248.799,1,3.75,3.5,0,-2.846,-2.7994449166989455,0.6380602940108656
43,967569.460918379,1935246.5681977419,967572.4631,1935248.799,1,3.74,3.5,0,-2.845,-2.799374118119257,0.6390449468395228
44,967569.4668956134,1935246.570306731,967572.4631,1935248.799,1,3.73,3.5,0,-2.844,-2.7991757345467327,0.6395463069990555
45,967569.4849805606,1935246.576590366,967572.4631,1935248.799,1,3.72,3.5,0,-2.843,-2.7993846130218234,0.6410941980606677
46,967569.4970258132,1935246.5808555551,967572.4631,1935248.799,1,3.7,3.5,0,-2.842,-2.7994000955203497,0.6421163073465584
47,967569.5152003303,1935246.587262664,967572.4631,1935248.799,1,3.69,3.5,0,-2.84,-2.799277782718339,0.6436775004243808
48,967569.527368082,1935246.591499294,967572.4631,1935248.799,1,3.67,3.5,0,-2.839,-2.7993171260363954,0.644742956060415
49,967569.5456031226,1935246.5979378826,967572.4631,1935248.799,1,3.65,3.5,0,-2.837,-2.799352638230855,0.6463335504582987
50,967569.5578309105,1935246.6022364874,967572.4631,1935248.799,1,3.64,3.5,0,-2.836,-2.7993547841794855,0.6474133038044494
51,967569.576187723,1935246.6086922672,967572.4631,1935248.799,1,3.62,3.5,0,-2.835,-2.7993059060445065,0.6490475209591159
52,967569.5884457739,1935246.6130066137,967572.4631,1935248.799,1,3.61,3.5,0,-2.834,-2.7993373906012438,0.6501473832744569
53,967569.6007643437,1935246.6173524358,967572.4631,1935248.799,1,3.6,3.5,0,-2.833,-2.7993159309960394,0.6512580430738603
54,967569.6193034537,1935246.6238568893,967572.4631,1935248.799,1,3.58,3.5,0,-2.831,-2.799317586791434,0.6529520557076031
55,967569.6378723372,1935246.630407586,967572.4631,1935248.799,1,3.56,3.5,0,-2.829,-2.7993330986983387,0.6546586258082092
56,967569.6503126811,1935246.634770602,967572.4631,1935248.799,1,3.55,3.5,0,-2.828,-2.7993206928109013,0.6558177558712671
57,967569.6690030986,1935246.641353738,967572.4631,1935248.799,1,3.53,3.5,0,-2.826,-2.799321878728077,0.6575683859314889
58,967569.6815039638,1935246.6457482353,967572.4631,1935248.799,1,3.52,3.5,0,-2.825,-2.7993285718391765,0.6587516506787995
59,967569.700316153,1935246.6523485722,967572.4631,1935248.799,1,3.5,3.5,0,-2.823,-2.799325005031906,0.6605512339836901
60,967569.7129080447,1935246.656775027,967572.4631,1935248.799,1,3.49,3.5,0,-2.822,-2.7993240246759994,0.6617647540492136
61,967569.7317805127,1935246.6634220928,967572.4631,1935248.799,1,3.47,3.5,0,-2.82,-2.7993266608189598,0.6635972336982735
62,967569.7444331724,1935246.667864771,967572.4631,1935248.799,1,3.45,3.5,0,-2.819,-2.799325005055792,0.6648401714951414
63,967569.7635184366,1935246.6745609946,967572.4631,1935248.799,1,3.44,3.5,0,-2.817,-2.7993245148838644,0.6667335702601132
64,967569.7826032182,1935246.6812877238,967572.4631,1935248.799,1,3.42,3.5,0,-2.815,-2.799325239983651,0.6686410903653477
65,967569.7954074278,1935246.685793835,967572.4631,1935248.799,1,3.4,3.5,0,-2.814,-2.79932544557013,0.6699344957699946
66,967569.8081813746,1935246.6902842147,967572.4631,1935248.799,1,3.39,3.5,0,-2.813,-2.799325005061935,0.6712357755264743
67,967569.8209855796,1935246.69479033,967572.4631,1935248.799,1,3.38,3.5,0,-2.811,-2.799325240032378,0.6725488510975349
68,967569.8403134224,1935246.7015819547,967572.4631,1935248.799,1,3.36,3.5,0,-2.809,-2.7993254455809846,0.674552318796195
69,967569.8596715258,1935246.7083893134,967572.4631,1935248.799,1,3.34,3.5,0,-2.807,-2.7993250050408465,0.6765809915846394
70,967569.8726275231,1935246.7129436145,967572.4631,1935248.799,1,3.33,3.5,0,-2.806,-2.7993250050669687,0.6779523386112511
71,967569.8791814191,1935246.715244858,967572.4631,1935248.799,1,3.32,3.5,0,-2.805,-2.799325240014446,0.6786507269550135
72,967569.9052149457,1935246.7243859102,967572.4631,1935248.799,1,3.29,3.5,0,-2.802,-2.7993250050764145,0.6814522899805651
73,967569.9117685992,1935246.726702404,967572.4631,1935248.799,1,3.29,3.5,0,-2.802,-2.799325005052718,0.6821609100884646
74,967569.9313390161,1935246.7335894264,967572.4631,1935248.799,1,3.27,3.5,0,-2.8,-2.799325005037208,0.684301103020258
75,967569.944446808,1935246.7381919133,967572.4631,1935248.799,1,3.25,3.5,0,-2.798,-2.79932500507262,0.6857513524616535
76,967569.9642602837,1935246.7451438305,967572.4631,1935248.799,1,3.23,3.5,0,-2.796,-2.7993250050855583,0.6879669679609176
77,967569.984073517,1935246.7521109965,967572.4631,1935248.799,1,3.21,3.5,0,-2.794,-2.799325005085919,0.6902060602789714
78,967570.0038564897,1935246.7590624266,967572.4631,1935248.799,1,3.2,3.5,0,-2.791,-2.799325005073575,0.6924705271979849
79,967570.0238820388,1935246.7661092584,967572.4631,1935248.799,1,3.18,3.5,0,-2.789,-2.7993250050846687,0.6947888671629024
80,967570.043846822,1935246.7731398628,967572.4631,1935248.799,1,3.16,3.5,0,-2.787,-2.799325005100743,0.6971280206550691
81,967570.0706383359,1935246.7825828537,967572.4631,1935248.799,1,3.13,3.5,0,-2.784,-2.7993250050784555,0.700311544264116
82,967570.0840492231,1935246.7873122124,967572.4631,1935248.799,1,3.12,3.5,0,-2.782,-2.799325005079939,0.7019248817789628
83,967570.1041657985,1935246.7943910065,967572.4631,1935248.799,1,3.1,3.5,0,-2.779,-2.7993250050948295,0.704374670853596
84,967570.124464667,1935246.8015184691,967572.4631,1935248.799,1,3.08,3.5,0,-2.777,-2.7993250050943166,0.7068826415813211
85,967570.1379363223,1935246.8062640524,967572.4631,1935248.799,1,3.06,3.5,0,-2.775,-2.799325005091382,0.7085614380247226
86,967570.1584170014,1935246.813470693,967572.4631,1935248.799,1,3.04,3.5,0,-2.773,-2.799325005074714,0.7111438188971073
87,967570.1787763933,1935246.8206296342,967572.4631,1935248.799,1,3.02,3.5,0,-2.77,-2.7993250050797056,0.713746414932639
88,967570.1993483434,1935246.8278529781,967572.4631,1935248.799,1,3.0,3.5,0,-2.767,-2.799325005087974,0.7164141425265249
89,967570.2267162764,1935246.8375034735,967572.4631,1935248.799,1,2.97,3.5,0,-2.764,-2.7993250050707887,0.7200091364817834
90,967570.2405220148,1935246.842345916,967572.4631,1935248.799,1,2.96,3.5,0,-2.762,-2.7993250050868412,0.721853981384561
91,967570.2543580161,1935246.8472040999,967572.4631,1935248.799,1,2.95,3.5,0,-2.76,-2.7993250050979084,0.7237185995989074
92,967570.2682240377,1935246.8520932703,967572.4631,1935248.799,1,2.93,3.5,0,-2.758,-2.799325005098023,0.725599373901049
93,967570.2890080566,1935246.8594115325,967572.4631,1935248.799,1,2.91,3.5,0,-2.755,-2.79932500507889,0.7284540335732413
94,967570.3099436255,1935246.8667932309,967572.4631,1935248.799,1,2.89,3.5,0,-2.752,-2.7993250050832326,0.7313675792471992
95,967570.330849176,1935246.8741439406,967572.4631,1935248.799,1,2.87,3.5,0,-2.75,-2.7993250051004206,0.7343237395115007
96,967570.3588547789,1935246.8839876633,967572.4631,1935248.799,1,2.85,3.5,0,-2.746,-2.799325005104359,0.7383513531788145
97,967570.3799426248,1935246.8913870442,967572.4631,1935248.799,1,2.82,3.5,0,-2.742,-2.799325005076545,0.7414388985949684
98,967570.3799426248,1935246.8913870442,967572.4631,1935248.799,1,2.82,3.5,0,-2.742,-2.7993250050728267,0.7414388985949684
99,967570.4151388194,1935246.9037862453,967572.4631,1935248.799,1,2.79,3.5,0,-2.737,-2.7993250050737966,0.7466803549295582
100,967570.4221476051,1935246.906262548,967572.4631,1935248.799,1,2.78,3.5,0,-2.736,-2.799325005075708,0.7477376283688405
101,967570.450395782,1935246.916201674,967572.4631,1935248.799,1,2.76,3.5,0,-2.732,-2.799325005078728,0.752062857410736
102,967570.4645348807,1935246.921186729,967572.4631,1935248.799,1,2.74,3.5,0,-2.73,-2.7993250050811724,0.7542575467970316
103,967570.478704727,1935246.9261570182,967572.4631,1935248.799,1,2.73,3.5,0,-2.727,-2.799325005080405,0.7564859730569268
104,967570.4999136173,1935246.9336193544,967572.4631,1935248.799,1,2.71,3.5,0,-2.724,-2.799325005080332,0.759857414548513
105,967570.5141137219,1935246.9386053775,967572.4631,1935248.799,1,2.69,3.5,0,-2.722,-2.7993250050829364,0.7621461727533705
106,967570.5354438992,1935246.9461154083,967572.4631,1935248.799,1,2.67,3.5,0,-2.718,-2.7993250050818284,0.7656227481927131
107,967570.5568045819,1935246.9536259277,967572.4631,1935248.799,1,2.65,3.5,0,-2.715,-2.799325005082581,0.7691611275965259
108,967570.5710347091,1935246.9586429491,967572.4631,1935248.799,1,2.64,3.5,0,-2.712,-2.7993250050788,0.7715452476483231
109,967570.5852648319,1935246.9636599633,967572.4631,1935248.799,1,2.63,3.5,0,-2.71,-2.7993250050824936,0.7739542444024761
110,967570.606655775,1935246.9711862202,967572.4631,1935248.799,1,2.61,3.5,0,-2.706,-2.79932500508037,0.7776272991441256
111,967570.6281072393,1935246.9787439518,967572.4631,1935248.799,1,2.58,3.5,0,-2.702,-2.799325005078604,0.7813665274213435
112,967570.6495894534,1935246.9862869147,967572.4631,1935248.799,1,2.56,3.5,0,-2.699,-2.7993250050792944,0.7851782483230616
113,967570.6638805866,1935246.991304904,967572.4631,1935248.799,1,2.55,3.5,0,-2.696,-2.79932500507833,0.7877480020408535
114,967570.6853625538,1935246.998863125,967572.4631,1935248.799,1,2.53,3.5,0,-2.692,-2.79932500507936,0.7916586226069418
115,967570.6996532021,1935247.0039116135,967572.4631,1935248.799,1,2.52,3.5,0,-2.69,-2.799325005077807,0.7942896744171737
116,967570.7139743512,1935247.0089605933,967572.4631,1935248.799,1,2.5,3.5,0,-2.687,-2.7993250050773115,0.7969579338269736
117,967570.742677662,1935247.0190595267,967572.4631,1935248.799,1,2.48,3.5,0,-2.681,-2.799325005078018,0.8023999439843418
118,967570.749807977,1935247.0215682772,967572.4631,1935248.799,1,2.47,3.5,0,-2.68,-2.7993250050772533,0.8037704230910457
119,967570.7713812174,1935247.0291432056,967572.4631,1935248.799,1,2.45,3.5,0,-2.676,-2.799325005081652,0.8079672920290701
120,967570.7928934473,1935247.0367171597,967572.4631,1935248.799,1,2.43,3.5,0,-2.672,-2.799325005077385,0.8122166619812182
121,967570.8216572792,1935247.046847568,967572.4631,1935248.799,1,2.4,3.5,0,-2.666,-2.799325005078894,0.8180097320809208
122,967570.8288180972,1935247.049356806,967572.4631,1935248.799,1,2.39,3.5,0,-2.664,-2.7993250050817045,0.8194759364894557
123,967570.8575519108,1935247.0594562225,967572.4631,1935248.799,1,2.37,3.5,0,-2.658,-2.7993250050788667,0.8254341603239536
124,967570.8790946457,1935247.0670306594,967572.4631,1935248.799,1,2.35,3.5,0,-2.654,-2.799325005077512,0.8299901504341766
125,967570.9006373785,1935247.0746051064,967572.4631,1935248.799,1,2.33,3.5,0,-2.649,-2.799325005078825,0.8346249546403808
126,967570.9221798709,1935247.082194798,967572.4631,1935248.799,1,2.31,3.5,0,-2.645,-2.799325005078235,0.8393359437536063
127,967570.9365317696,1935247.087229011,967572.4631,1935248.799,1,2.29,3.5,0,-2.641,-2.79932500507613,0.8425265933362084
128,967570.9580440014,1935247.094802964,967572.4631,1935248.799,1,2.27,3.5,0,-2.636,-2.7993250050776837,0.8473708494677071
129,967570.9723956553,1935247.0998524288,967572.4631,1935248.799,1,2.26,3.5,0,-2.633,-2.7993250050787055,0.8506511284875083
130,967570.9937560925,1935247.1073782006,967572.4631,1935248.799,1,2.24,3.5,0,-2.628,-2.799325005060945,0.8556022145866268
131,967571.0080774882,1935247.1124119316,967572.4631,1935248.799,1,2.23,3.5,0,-2.625,-2.7993250050532046,0.8589742938112709
132,967571.0295902046,1935247.119955381,967572.4631,1935248.799,1,2.21,3.5,0,-2.62,-2.799325005041137,0.864120451289236
133,967571.0438810927,1935247.1249886213,967572.4631,1935248.799,1,2.19,3.5,0,-2.616,-2.799325005041137,0.8675836227507423
134,967571.0652415341,1935247.1325143923,967572.4631,1935248.799,1,2.18,3.5,0,-2.611,-2.7993250050714695,0.8728368413103389
135,967571.0795021638,1935247.1375318945,967572.4631,1935248.799,1,2.16,3.5,0,-2.607,-2.7993250050713057,0.8763987611622701
136,967571.1008630855,1935247.1450271606,967572.4631,1935248.799,1,2.14,3.5,0,-2.602,-2.799325005077633,0.88182091392259
137,967571.1079931601,1935247.1475511657,967572.4631,1935248.799,1,2.14,3.5,0,-2.6,-2.799325005076135,0.8836460977619366
138,967571.1363623801,1935247.1575532379,967572.4631,1935248.799,1,2.11,3.5,0,-2.593,-2.7993250050623604,0.8910309985015806
139,967571.1576320351,1935247.1650317952,967572.4631,1935248.799,1,2.09,3.5,0,-2.587,-2.7993250050630936,0.8966925692188608
140,967571.1718018828,1935247.1700020821,967572.4631,1935248.799,1,2.08,3.5,0,-2.583,-2.799325005062981,0.9005256982791843
141,967571.1788411689,1935247.1724788768,967572.4631,1935248.799,1,2.07,3.5,0,-2.581,-2.7993250050709153,0.9024450965387579
142,967571.2070893461,1935247.182417993,967572.4631,1935248.799,1,2.05,3.5,0,-2.574,-2.7993250050693104,0.9102663323278983
143,967571.214007105,1935247.1848623406,967572.4631,1935248.799,1,2.04,3.5,0,-2.572,-2.7993250050687353,0.9122080467941145
144,967571.2421642579,1935247.194769501,967572.4631,1935248.799,1,2.02,3.5,0,-2.564,-2.7993250050776326,0.9202463883318408
145,967571.2561820663,1935247.199706856,967572.4631,1935248.799,1,2.0,3.5,0,-2.56,-2.799325005073746,0.9243213276406091
146,967571.2698599603,1935247.2049134008,967572.4631,1935248.799,1,1.99,3.5,0,-2.556,-2.7993250050623844,0.9282292853056002
147,967571.2902860874,1935247.213629507,967572.4631,1935248.799,1,1.97,3.5,0,-2.554,-2.795183162330407,0.93387284430492
148,967571.3105291852,1935247.2223426965,967572.4631,1935248.799,1,1.95,3.5,0,-2.553,-2.790168774797728,0.9395523328960498
149,967571.3238872178,1935247.2284747644,967572.4631,1935248.799,1,1.94,3.5,0,-2.555,-2.7847006414102555,0.9432452814434682
150,967571.3438433922,1935247.2379614273,967572.4631,1935248.799,1,1.92,3.5,0,-2.554,-2.7806131906986913,0.9487552552446695
151,967571.3571687357,1935247.2442302743,967572.4631,1935248.799,1,1.91,3.5,0,-2.554,-2.776559847138031,0.95251659948786
152,967571.3771585712,1935247.2535191574,967572.4631,1935248.799,1,1.89,3.5,0,-2.551,-2.774003730061486,0.9582900172729146
153,967571.3904216919,1935247.2598632895,967572.4631,1935248.799,1,1.88,3.5,0,-2.552,-2.7687132339105838,0.9621303444440961
154,967571.4036535781,1935247.2662526926,967572.4631,1935248.799,1,1.86,3.5,0,-2.555,-2.76245833142202,0.965995781783763
155,967571.4173873008,1935247.2775319805,967572.4631,1935248.799,1,1.85,3.5,0,-2.559,-2.7556421861764946,0.9686413520022988
156,967571.4284924063,1935247.283353555,967572.4631,1935248.799,1,1.84,3.5,0,-2.559,-2.751870625501579,0.9718316174453815
157,967571.4474771718,1935247.290612644,967572.4631,1935248.799,1,1.82,3.5,0,-2.554,-2.75049493471521,0.9782037766462941
158,967571.467647223,1935247.2981652212,967572.4631,1935248.799,1,1.8,3.5,0,-2.546,-2.7516720369438175,0.9851516828703143
159,967571.4889362075,1935247.3063458558,967572.4631,1935248.799,1,1.78,3.5,0,-2.539,-2.7516720369438175,0.9925684004129935
160,967571.503209604,1935247.3124772445,967572.4631,1935248.799,1,1.77,3.5,0,-2.534,-2.7515420794795644,0.9974296452927154
161,967571.5098060467,1935247.3159386148,967572.4631,1935248.799,1,1.76,3.5,0,-2.534,-2.7500405133767405,0.9995078244271226
162,967571.5373650497,1935247.3289179443,967572.4631,1935248.799,1,1.74,3.5,0,-2.53,-2.7444942234999643,1.0088125468006495
